# n dim(n) qubits
0 1 0.0
1 2 1.0
2 4 2.0
3 7 2.807354922057604
4 12 3.584962500721156
5 19 4.247927513443585
6 30 4.906890595608519
7 45 5.491853096329675
8 67 6.066089190457772
9 97 6.599912842187128
10 139 7.118941072723508
11 195 7.60733031374961
12 272 8.087462841250339
13 373 8.543031820255237
14 508 8.988684686772165
15 684 9.417852514885897
16 915 9.837627933171404
17 1212 10.243173983472952
18 1597 10.641148597411233
19 2087 11.027214885159834
20 2714 11.406205005418855
21 3506 11.775610280759539
22 4508 12.138271800172221
23 5763 12.492604304386683
24 7338 12.841171189248543
25 9296 13.18239435340453
26 11732 13.518161355756956
27 14742 13.84764464308332
28 18460 14.172114932533136
29 23025 14.49091353586606
30 28629 14.805189657981826
31 35471 15.11435238291825
32 43820 15.419301863877585
33 53963 15.7196829347447
34 66273 16.01613360735614
35 81156 16.308410139144073
36 99133 16.59707777007214
37 120770 16.881902599411106
38 146785 17.16334502074262
39 177970 17.441274544286355
40 215308 17.716042399821685
41 259891 17.987547148723312
42 313065 18.256102701696836
43 376326 18.521623441693432
44 451501 18.78436965747726
45 540635 19.04429538751535
46 646193 19.301605596875458
47 770947 19.556272157579212
48 918220 19.808480330563086
49 1091745 20.058204493168038
50 1295971 20.3056020046576
51 1535914 20.550666007227637
52 1817503 20.793526314806897
53 2147434 21.034182361067
54 2533589 21.272751078114922
55 2984865 21.509234251824353
56 3511688 21.743733241974233
57 4125842 21.976257143291903
58 4841062 22.206892140391307
59 5672882 22.435650424557164
60 6639349 22.66261035901159
61 7760854 22.887783983820952
62 9061010 23.111240440873615
63 10566509 23.332995477046058
64 12308139 23.553109305933422
65 14320697 23.771598375666528
66 16644217 23.98851766705454
67 19323906 24.203883404206373
68 22411641 24.417744952322945
69 25965986 24.63011967378136
70 30053954 24.84105147348174
71 34751159 25.050557758757577
72 40143942 25.2586789556658
73 46329631 25.465431856045488
74 53419131 25.67085317121811
75 61537395 25.874960037032704
76 70826486 26.07778563010317
77 81446349 26.279346692641262
78 93578513 26.47967396809067
79 107427163 26.67878358455106
80 123223639 26.87670380568894